#Time(fs)       #Bond_length
  0.00000000    0.000000000000
  0.24900000   -0.000011021273
  0.49800000   -0.000031052235
  0.74700000   -0.000060086028
  0.99600000   -0.000098112803
  1.24500000   -0.000145119818
  1.49400000   -0.000201091572
  1.74300000   -0.000266009964
  1.99200000   -0.000339854480
  2.24100000   -0.000422602405
  2.49000000   -0.000514229059
  2.73900000   -0.000614708056
  2.98800000   -0.000724011582
  3.23700000   -0.000842110685
  3.48600000   -0.000968975583
  3.73500000   -0.001104575988
  3.98400000   -0.001248881425
  4.23300000   -0.001401861570
  4.48200000   -0.001563486585
  4.73100000   -0.001733727447
  4.98000000   -0.001912556284
  5.22900000   -0.002099946694
  5.47800000   -0.002295874062
  5.72700000   -0.002500315857
  5.97600000   -0.002713251917
  6.22500000   -0.002934664715
  6.47400000   -0.003164539600
  6.72300000   -0.003402865016
  6.97200000   -0.003649632692
  7.22100000   -0.003904837798
  7.47000000   -0.004168479076
  7.71900000   -0.004440558924
  7.96800000   -0.004721083449
  8.21700000   -0.005010062477
  8.46600000   -0.005307509517
  8.71500000   -0.005613441678
  8.96400000   -0.005927879544
  9.21300000   -0.006250846985
  9.46200000   -0.006582370927
  9.71100000   -0.006922481087
  9.96000000   -0.007271209559
 10.20900000   -0.007628590440
 10.45800000   -0.007994659353
 10.70700000   -0.008369452909
 10.95600000   -0.008753008103
 11.20500000   -0.009145361632
 11.45400000   -0.009546549156
 11.70300000   -0.009956604474
 11.95200000   -0.010375558635
 12.20100000   -0.010803438964
 12.45000000   -0.011240268023
 12.69900000   -0.011686062487
 12.94800000   -0.012140831943
 13.19700000   -0.012604577623
 13.44600000   -0.013077291042
 13.69500000   -0.013558952582
 13.94400000   -0.014049529987
 14.19300000   -0.014548976798
 14.44200000   -0.015057230720
 14.69100000   -0.015574211922
 14.94000000   -0.016099821290
 15.18900000   -0.016633938622
 15.43800000   -0.017176420789
 15.68700000   -0.017727099854
 15.93600000   -0.018285781183
 16.18500000   -0.018852241526
 16.43400000   -0.019426227121
 16.68300000   -0.020007451800
 16.93200000   -0.020595595135
 17.18100000   -0.021190300631
 17.43000000   -0.021791173991
 17.67900000   -0.022397781472
 17.92800000   -0.023009648341
 18.17700000   -0.023626257477
 18.42600000   -0.024247048125
 18.67500000   -0.024871414826
 18.92400000   -0.025498706557
 19.17300000   -0.026128226102
 19.42200000   -0.026759229678
 19.67100000   -0.027390926838
 19.92000000   -0.028022480683
 20.16900000   -0.028653008399
 20.41800000   -0.029281582140
 20.66700000   -0.029907230288
 20.91600000   -0.030528939084
 21.16500000   -0.031145654669
 21.41400000   -0.031756285529
 21.66300000   -0.032359705358
 21.91200000   -0.032954756342
 22.16100000   -0.033540252861
 22.41000000   -0.034114985601
 22.65900000   -0.034677726073
 22.90800000   -0.035227231511
 23.15700000   -0.035762249682
 23.40600000   -0.036281525272
 23.65500000   -0.036783805436
 23.90400000   -0.037267845937
 24.15300000   -0.037732417517
 24.40200000   -0.038176312417
 24.65100000   -0.038598351021
 24.90000000   -0.038997388544
 25.14900000   -0.039372321722
 25.39800000   -0.039722095429
 25.64700000   -0.040045709160
 25.89600000   -0.040342223313
 26.14500000   -0.040610766461
 26.39400000   -0.040850538580
 26.64300000   -0.041060817557
 26.89200000   -0.041240964040
 27.14100000   -0.041390425792
 27.39000000   -0.041508741479
 27.63900000   -0.041595543874
 27.88800000   -0.041650562419
 28.13700000   -0.041673625123
 28.38600000   -0.041664659776
 28.63500000   -0.041623694456
 28.88400000   -0.041550857335
 29.13300000   -0.041446375770
 29.38200000   -0.041310574707
 29.63100000   -0.041143874406
 29.88000000   -0.040946787517
 30.12900000   -0.040719915546
 30.37800000   -0.040463944738
 30.62700000   -0.040179641445
 30.87600000   -0.039867845791
 31.12500000   -0.039529468635
 31.37400000   -0.039165484433
 31.62300000   -0.038776925054
 31.87200000   -0.038364873379
 32.12100000   -0.037930456738
 32.37000000   -0.037474840237
 32.61900000   -0.036999220070
 32.86800000   -0.036504816843
 33.11700000   -0.035992868995
 33.36600000   -0.035464626353
 33.61500000   -0.034921343886
 33.86400000   -0.034364275698
 34.11300000   -0.033794669586
 34.36200000   -0.033213760953
 34.61100000   -0.032622768132
 34.86000000   -0.032022887707
 35.10900000   -0.031415290215
 35.35800000   -0.030801116264
 35.60700000   -0.030181473061
 35.85600000   -0.029557431370
 36.10500000   -0.028930022878
 36.35400000   -0.028300237982
 36.60300000   -0.027669023975
 36.85200000   -0.027037283625
 37.10100000   -0.026405874132
 37.35000000   -0.025775606438
 37.59900000   -0.025147244875
 37.84800000   -0.024521507129
 38.09700000   -0.023899064496
 38.34600000   -0.023280542400
 38.59500000   -0.022666521158
 38.84400000   -0.022057536956
 39.09300000   -0.021454083023
 39.34200000   -0.020856610964
 39.59100000   -0.020265532247
 39.84000000   -0.019681219798
 40.08900000   -0.019104009703
 40.33800000   -0.018534202987
 40.58700000   -0.017972067447
 40.83600000   -0.017417839530
 41.08500000   -0.016871726234
 41.33400000   -0.016333907012
 41.58300000   -0.015804535682
 41.83200000   -0.015283742309
 42.08100000   -0.014771635067
 42.33000000   -0.014268302057
 42.57900000   -0.013773813079
 42.82800000   -0.013288221361
 43.07700000   -0.012811565212
 43.32600000   -0.012343869625
 43.57500000   -0.011885147806
 43.82400000   -0.011435402630
 44.07300000   -0.010994628026
 44.32200000   -0.010562810287
 44.57100000   -0.010139929299
 44.82000000   -0.009725959700
 45.06900000   -0.009320871958
 45.31800000   -0.008924633370
 45.56700000   -0.008537208989
 45.81600000   -0.008158562478
 46.06500000   -0.007788656887
 46.31400000   -0.007427455355
 46.56300000   -0.007074921756
 46.81200000   -0.006731021257
 47.06100000   -0.006395720830
 47.31000000   -0.006068989650
 47.55900000   -0.005750799538
 47.80800000   -0.005441125245
 48.05700000   -0.005139944715
 48.30600000   -0.004847239291
 48.55500000   -0.004562993865
 48.80400000   -0.004287196985
 49.05300000   -0.004019840905
 49.30200000   -0.003760921597
 49.55100000   -0.003510438720
 49.80000000   -0.003268395544
 50.04900000   -0.003034798844
 50.29800000   -0.002809658752
 50.54700000   -0.002592988581
 50.79600000   -0.002384804622
 51.04500000   -0.002185125908
 51.29400000   -0.001993973962
 51.54300000   -0.001811372518
 51.79200000   -0.001637347229
 52.04100000   -0.001471925360
 52.29000000   -0.001315135469
 52.53900000   -0.001167007075
 52.78800000   -0.001027570332
 53.03700000   -0.000896855688
 53.28600000   -0.000774893555
 53.53500000   -0.000661713979
 53.78400000   -0.000557346316
 54.03300000   -0.000461818917
 54.28200000   -0.000375158835
 54.53100000   -0.000297391532
 54.78000000   -0.000228540620
 55.02900000   -0.000168627608
 55.27800000   -0.000117671687
 55.52700000   -0.000075689523
 55.77600000   -0.000042695091
 56.02500000   -0.000018699527
 56.27400000   -0.000003711018
 56.52300000    0.000002265288
 56.77200000   -0.000000772672
 57.02100000   -0.000012823849
 57.27000000   -0.000033884095
 57.51900000   -0.000063946208
 57.76800000   -0.000103000000
 58.01700000   -0.000151032408
 58.26600000   -0.000208027625
 58.51500000   -0.000273967263
 58.76400000   -0.000348830546
 59.01300000   -0.000432594521
 59.26200000   -0.000525234300
 59.51100000   -0.000626723320
 59.76000000   -0.000737033619
 60.00900000   -0.000856136135
 60.25800000   -0.000984001013
 60.50700000   -0.001120597924
 60.75600000   -0.001265896394
 61.00500000   -0.001419866138
 61.25400000   -0.001582477392
 61.50300000   -0.001753701249
 61.75200000   -0.001933509988
 62.00100000   -0.002121877394
 62.25000000   -0.002318779076
 62.49900000   -0.002524192759
 62.74800000   -0.002738098568
 62.99700000   -0.002960479293
 63.24600000   -0.003191320625
 63.49500000   -0.003430611375
 63.74400000   -0.003678343657
 63.99300000   -0.003934513042
 64.24200000   -0.004199118687
 64.49100000   -0.004472163411
 64.74000000   -0.004753653746
 64.98900000   -0.005043599942
 65.23800000   -0.005342015923
 65.48700000   -0.005648919204
 65.73600000   -0.005964330752
 65.98500000   -0.006288274802
 66.23400000   -0.006620778609
 66.48300000   -0.006961872184
 66.73200000   -0.007311587873
 66.98100000   -0.007669959972
 67.23000000   -0.008037024245
 67.47900000   -0.008412817379
 67.72800000   -0.008797376370
 67.97700000   -0.009190737837
 68.22600000   -0.009592937270
 68.47500000   -0.010004008201
 68.72400000   -0.010423981302
 68.97300000   -0.010852883410
 69.22200000   -0.011290736472
 69.47100000   -0.011737556416
 69.72000000   -0.012193351941
 69.96900000   -0.012658123237
 70.21800000   -0.013131860624
 70.46700000   -0.013614543113
 70.71600000   -0.014106136910
 70.96500000   -0.014606593829
 71.21400000   -0.015115849659
 71.46300000   -0.015633822456
 71.71200000   -0.016160410788
 71.96100000   -0.016695491928
 72.21000000   -0.017238920007
 72.45900000   -0.017790524138
 72.70800000   -0.018350106509
 72.95700000   -0.018917440485
 73.20600000   -0.019492268694
 73.45500000   -0.020074301148
 73.70400000   -0.020663213387
 73.95300000   -0.021258644685
 74.20200000   -0.021860196320
 74.45100000   -0.022467429938
 74.70000000   -0.023079866034
 74.94900000   -0.023696982561
 75.19800000   -0.024318213705
 75.44700000   -0.024942948841
 75.69600000   -0.025570531696
 75.94500000   -0.026200259747
 76.19400000   -0.026831383877
 76.44300000   -0.027463108315
 76.69200000   -0.028094590883
 76.94100000   -0.028724943568
 77.19000000   -0.029353233454
 77.43900000   -0.029978484014
 77.68800000   -0.030599676798
 77.93700000   -0.031215753512
 78.18600000   -0.031825618512
 78.43500000   -0.032428141719
 78.68400000   -0.033022161945
 78.93300000   -0.033606490645
 79.18200000   -0.034179916078
 79.43100000   -0.034741207868
 79.68000000   -0.035289121945
 79.92900000   -0.035822405381
 80.17800000   -0.036339802841
 80.42700000   -0.036840062145
 80.67600000   -0.037321940443
 80.92500000   -0.037784210598
 81.17400000   -0.038225667727
 81.42300000   -0.038645135853
 81.67200000   -0.039041474598
 81.92100000   -0.039413585863
 82.17000000   -0.039760420437
 82.41900000   -0.040080984457
 82.66800000   -0.040374345670
 82.91700000   -0.040639640667
 83.16600000   -0.040876078066
 83.41500000   -0.041082944973
 83.66400000   -0.041259611779
 83.91300000   -0.041405536450
 84.16200000   -0.041520268256
 84.41100000   -0.041603450898
 84.66000000   -0.041654824996
 84.90900000   -0.041674229912
 85.15800000   -0.041661604882
 85.40700000   -0.041616989445
 85.65600000   -0.041540523164
 85.90500000   -0.041432444642
 86.15400000   -0.041293089843
 86.40300000   -0.041122889744
 86.65200000   -0.040922367340
 86.90100000   -0.040692134035
 87.15000000   -0.040432885475
 87.39900000   -0.040145396848
 87.64800000   -0.039830516507
 87.89700000   -0.039489162883
 88.14600000   -0.039122317310
 88.39500000   -0.038731017814
 88.64400000   -0.038316352691
 88.89300000   -0.037879453924
 89.14200000   -0.037421490514
 89.39100000   -0.036943661780
 89.64000000   -0.036447190699
 89.88900000   -0.035933317332
 90.13800000   -0.035403292409
 90.38700000   -0.034858371100
 90.63600000   -0.034299807420
 90.88500000   -0.033728847670
 91.13400000   -0.033146725553
 91.38300000   -0.032554657147
 91.63200000   -0.031953836269
 91.88100000   -0.031345430226
 92.13000000   -0.030730575977
 92.37900000   -0.030110376713
 92.62800000   -0.029485898858
 92.87700000   -0.028858169485
 93.12600000   -0.028228174151
 93.37500000   -0.027596855126
 93.62400000   -0.026965110020
 93.87300000   -0.026333790775
 94.12200000   -0.025703703018
 94.37100000   -0.025075605748
 94.62000000   -0.024450211335
 94.86900000   -0.023828185801
 95.11800000   -0.023210149374
 95.36700000   -0.022596677275
 95.61600000   -0.021988300719
 95.86500000   -0.021385508110
 96.11400000   -0.020788746390
 96.36300000   -0.020198422539
 96.61200000   -0.019614905187
 96.86100000   -0.019038526323
 97.11000000   -0.018469583081
 97.35900000   -0.017908339582
 97.60800000   -0.017355028810
 97.85700000   -0.016809854520
 98.10600000   -0.016272993141
 98.35500000   -0.015744595682
 98.60400000   -0.015224789612
 98.85300000   -0.014713680721
 99.10200000   -0.014211354930
 99.35100000   -0.013717880060
 99.60000000   -0.013233307551
 99.84900000   -0.012757674111
100.09800000   -0.012291003311
100.34700000   -0.011833307103
100.59600000   -0.011384587271
100.84500000   -0.010944836808
101.09400000   -0.010514041214
101.34300000   -0.010092179717
101.59200000   -0.009679226428
101.84100000   -0.009275151400
102.09000000   -0.008879921631
102.33900000   -0.008493501972
102.58800000   -0.008115855978
102.83700000   -0.007746946674
103.08600000   -0.007386737255
103.33500000   -0.007035191713
103.58400000   -0.006692275397
103.83300000   -0.006357955513
104.08200000   -0.006032201518
104.33100000   -0.005714985552
104.58000000   -0.005406282719
104.82900000   -0.005106071342
105.07800000   -0.004814333163
105.32700000   -0.004531053488
105.57600000   -0.004256221285
105.82500000   -0.003989829233
106.07400000   -0.003731873729
106.32300000   -0.003482354848
106.57200000   -0.003241276269
106.82100000   -0.003008645155
107.07000000   -0.002784472014
107.31900000   -0.002568770509
107.56800000   -0.002361557256
107.81700000   -0.002162851587
108.06600000   -0.001972675290
108.31500000   -0.001791052336
108.56400000   -0.001618008577
108.81300000   -0.001453571443
109.06200000   -0.001297769616
109.31100000   -0.001150632707
109.56000000   -0.001012190919
109.80900000   -0.000882474713
110.05800000   -0.000761514478
110.30700000   -0.000649340194
110.55600000   -0.000545981120
110.80500000   -0.000451465473
111.05400000   -0.000365820139
111.30300000   -0.000289070381
111.55200000   -0.000221239583
111.80100000   -0.000162349001
112.05000000   -0.000112417545
112.29900000   -0.000071461584
112.54800000   -0.000039494773
112.79700000   -0.000016527919
113.04600000   -0.000002568863
113.29500000    0.000002377595
113.54400000   -0.000001690251
113.79300000   -0.000014770998
114.04200000   -0.000036860145
114.29100000   -0.000067950145
114.54000000   -0.000108030477
114.78900000   -0.000157087756
115.03800000   -0.000215105871
115.28700000   -0.000282066153
115.53600000   -0.000357947563
115.78500000   -0.000442726915
116.03400000   -0.000536379118
116.28300000   -0.000638877433
116.53200000   -0.000750193758
116.78100000   -0.000870298923
117.03000000   -0.000999163004
117.27900000   -0.001136755638
117.52800000   -0.001283046357
117.77700000   -0.001438004916
118.02600000   -0.001601601634
118.27500000   -0.001773807722
118.52400000   -0.001954595614
118.77300000   -0.002143939291
119.02200000   -0.002341814585
119.27100000   -0.002548199483
119.52000000   -0.002763074402
119.76900000   -0.002986422451
120.01800000   -0.003218229668
120.26700000   -0.003458485232
120.51600000   -0.003707181643
120.76500000   -0.003964314879
121.01400000   -0.004229884509
121.26300000   -0.004503893776
121.51200000   -0.004786349639
121.76100000   -0.005077262767
122.01000000   -0.005376647502
122.25900000   -0.005684521761
122.50800000   -0.006000906895
122.75700000   -0.006325827495
123.00600000   -0.006659311147
123.25500000   -0.007001388150
123.50400000   -0.007352091095
123.75300000   -0.007711454470
124.00200000   -0.008079514175
124.25100000   -0.008456306965
124.50000000   -0.008841869828
124.74900000   -0.009236239293
124.99800000   -0.009639450670
125.24700000   -0.010051537212
125.49600000   -0.010472529203
125.74500000   -0.010902452977
125.99400000   -0.011341329851
126.24300000   -0.011789174989
126.49200000   -0.012245996186
126.74100000   -0.012711792574
126.99000000   -0.013186553254
127.23900000   -0.013670255853
127.48800000   -0.014162865013
127.73700000   -0.014664330801
127.98600000   -0.015174587068
128.23500000   -0.015693549734
128.48400000   -0.016221115025
128.73300000   -0.016757157665
128.98200000   -0.017301529023
129.23100000   -0.017854055230
129.48000000   -0.018414535280
129.72900000   -0.018982739122
129.97800000   -0.019558405751
130.22700000   -0.020141241335
130.47600000   -0.020730917361
130.72500000   -0.021327068846
130.97400000   -0.021929292623
131.22300000   -0.022537145709
131.47200000   -0.023150143808
131.72100000   -0.023767759930
131.97000000   -0.024389423193
132.21900000   -0.025014517792
132.46800000   -0.025642382196
132.71700000   -0.026272308573
132.96600000   -0.026903542472
133.21500000   -0.027535282802
133.46400000   -0.028166682112
133.71300000   -0.028796847206
133.96200000   -0.029424840112
134.21100000   -0.030049679422
134.46000000   -0.030670342020
134.70900000   -0.031285765210
134.95800000   -0.031894849260
135.20700000   -0.032496460359
135.45600000   -0.033089433996
135.70500000   -0.033672578758
135.95400000   -0.034244680537
136.20300000   -0.034804507136
136.45200000   -0.035350813249
136.70100000   -0.035882345331
136.95000000   -0.036397848102
137.19900000   -0.036896070131
137.44800000   -0.037375770037
137.69700000   -0.037835722890
137.94600000   -0.038274726774
138.19500000   -0.038691609438
138.44400000   -0.039085234997
138.69300000   -0.039454510605
138.94200000   -0.039798393051
139.19100000   -0.040115895199
139.44000000   -0.040406092220
139.68900000   -0.040668128799
139.93800000   -0.040901222263
140.18700000   -0.041104668999
140.43600000   -0.041277849199
140.68500000   -0.041420231082
140.93400000   -0.041531374560
141.18300000   -0.041610934293
141.43200000   -0.041658662105
141.68100000   -0.041674408722
141.93000000   -0.041658124834
142.17900000   -0.041609861434
142.42800000   -0.041529769463
142.67700000   -0.041418098747
142.92600000   -0.041275196235
143.17500000   -0.041101503583
143.42400000   -0.040897554078
143.67300000   -0.040663968972
143.92200000   -0.040401453244
144.17100000   -0.040110790852
144.42000000   -0.039792838303
144.66900000   -0.039448521521
144.91800000   -0.039078828634
145.16700000   -0.038684803742
145.41600000   -0.038267540465
145.66500000   -0.037828175356
145.91400000   -0.037367881217
146.16300000   -0.036887860406
146.41200000   -0.036389338181
146.66100000   -0.035873556145
146.91000000   -0.035341765844
147.15900000   -0.034795222572
147.40800000   -0.034235179786
147.65700000   -0.033662882616
147.90600000   -0.033079562995
148.15500000   -0.032486434688
148.40400000   -0.031884688690
148.65300000   -0.031275489027
148.90200000   -0.030659968965
149.15100000   -0.030039227638
149.40000000   -0.029414327097
149.64900000   -0.028786289774
149.89800000   -0.028156096364
150.14700000   -0.027524684095
150.39600000   -0.026892945405
150.64500000   -0.026261726969
150.89400000   -0.025631829098
151.14300000   -0.025004005460
151.39200000   -0.024378963106
151.64100000   -0.023757362796
151.89000000   -0.023139819572
152.13900000   -0.022526903572
152.38800000   -0.021919141058
152.63700000   -0.021317015624
152.88600000   -0.020720969568
153.13500000   -0.020131405406
153.38400000   -0.019548687493
153.63300000   -0.018973143745
153.88200000   -0.018405067430
154.13100000   -0.017844719016
154.38000000   -0.017292328051
154.62900000   -0.016748095072
154.87800000   -0.016212193506
155.12700000   -0.015684771579
155.37600000   -0.015165954191
155.62500000   -0.014655844769
155.87400000   -0.014154527079
156.12300000   -0.013662066984
156.37200000   -0.013178514158
156.62100000   -0.012703903731
156.87000000   -0.012238257868
157.11900000   -0.011781587290
157.36800000   -0.011333892707
157.61700000   -0.010895166192
157.86600000   -0.010465392467
158.11500000   -0.010044550120
158.36400000   -0.009632612745
158.61300000   -0.009229549999
158.86200000   -0.008835328586
159.11100000   -0.008449913171
159.36000000   -0.008073267210
159.60900000   -0.007705353713
159.85800000   -0.007346135935
160.10700000   -0.006995577996
